Energy(eV) DOS(1/eV/m^3) DOS_Norm(CodeUnits)
0 0 0
0.001 2.4045e+26 0.0314562
0.002 3.40472e+26 0.0445414
0.003 4.17512e+26 0.0546199
0.004 4.82703e+26 0.0631483
0.005 5.4035e+26 0.0706899
0.006 5.92661e+26 0.0775332
0.007 6.40943e+26 0.0838496
0.008 6.86048e+26 0.0897504
0.009 7.28567e+26 0.0953128
0.01 7.68929e+26 0.100593
0.011 8.07459e+26 0.105634
0.012 8.44408e+26 0.110467
0.013 8.79975e+26 0.11512
0.014 9.14321e+26 0.119614
0.015 9.47581e+26 0.123965
0.016 9.79865e+26 0.128188
0.017 1.01127e+27 0.132296
0.018 1.04187e+27 0.136299
0.019 1.07173e+27 0.140206
0.02 1.10093e+27 0.144026
0.021 1.1295e+27 0.147764
0.022 1.1575e+27 0.151426
0.023 1.18496e+27 0.15502
0.024 1.21193e+27 0.158548
0.025 1.23844e+27 0.162015
0.026 1.26451e+27 0.165426
0.027 1.29017e+27 0.168783
0.028 1.31545e+27 0.17209
0.029 1.34036e+27 0.175349
0.03 1.36494e+27 0.178564
0.031 1.38919e+27 0.181737
0.032 1.41313e+27 0.18487
0.033 1.43679e+27 0.187964
0.034 1.46017e+27 0.191022
0.035 1.48328e+27 0.194046
0.036 1.50615e+27 0.197037
0.037 1.52877e+27 0.199997
0.038 1.55117e+27 0.202927
0.039 1.57334e+27 0.205828
0.04 1.59531e+27 0.208702
0.041 1.61708e+27 0.21155
0.042 1.63865e+27 0.214373
0.043 1.66004e+27 0.217171
0.044 1.68126e+27 0.219946
0.045 1.7023e+27 0.222699
0.046 1.72318e+27 0.22543
0.047 1.7439e+27 0.228141
0.048 1.76447e+27 0.230832
0.049 1.78489e+27 0.233503
0.05 1.80517e+27 0.236157
0.051 1.82531e+27 0.238792
0.052 1.84533e+27 0.24141
0.053 1.86521e+27 0.244011
0.054 1.88497e+27 0.246596
0.055 1.90461e+27 0.249166
0.056 1.92414e+27 0.25172
0.057 1.94355e+27 0.25426
0.058 1.96286e+27 0.256786
0.059 1.98206e+27 0.259298
0.06 2.00116e+27 0.261797
0.061 2.02016e+27 0.264282
0.062 2.03907e+27 0.266756
0.063 2.05788e+27 0.269217
0.064 2.0766e+27 0.271666
0.065 2.09524e+27 0.274104
0.066 2.11379e+27 0.276531
0.067 2.13226e+27 0.278946
0.068 2.15064e+27 0.281352
0.069 2.16895e+27 0.283747
0.07 2.18718e+27 0.286132
0.071 2.20534e+27 0.288508
0.072 2.22343e+27 0.290874
0.073 2.24144e+27 0.293231
0.074 2.25939e+27 0.295579
0.075 2.27727e+27 0.297918
0.076 2.29509e+27 0.300249
0.077 2.31284e+27 0.302572
0.078 2.33054e+27 0.304886
0.079 2.34817e+27 0.307193
0.08 2.36574e+27 0.309492
0.081 2.38326e+27 0.311783
0.082 2.40072e+27 0.314068
0.083 2.41813e+27 0.316345
0.084 2.43548e+27 0.318615
0.085 2.45278e+27 0.320879
0.086 2.47004e+27 0.323136
0.087 2.48724e+27 0.325386
0.088 2.50439e+27 0.327631
0.089 2.5215e+27 0.329869
0.09 2.53856e+27 0.332101
0.091 2.55558e+27 0.334327
0.092 2.57255e+27 0.336547
0.093 2.58948e+27 0.338762
0.094 2.60637e+27 0.340972
0.095 2.62322e+27 0.343176
0.096 2.64003e+27 0.345375
0.097 2.6568e+27 0.347569
0.098 2.67353e+27 0.349757
0.099 2.69022e+27 0.351941
0.1 2.70688e+27 0.354121
0.101 2.7235e+27 0.356295
0.102 2.74009e+27 0.358465
0.103 2.75665e+27 0.360631
0.104 2.77316e+27 0.362792
0.105 2.78965e+27 0.364949
0.106 2.80611e+27 0.367101
0.107 2.82253e+27 0.36925
0.108 2.83893e+27 0.371395
0.109 2.85529e+27 0.373536
0.11 2.87162e+27 0.375672
0.111 2.88793e+27 0.377806
0.112 2.90421e+27 0.379935
0.113 2.92046e+27 0.382061
0.114 2.93668e+27 0.384184
0.115 2.95288e+27 0.386303
0.116 2.96905e+27 0.388418
0.117 2.9852e+27 0.390531
0.118 3.00132e+27 0.39264
0.119 3.01742e+27 0.394746
0.12 3.0335e+27 0.396849
0.121 3.04955e+27 0.398949
0.122 3.06558e+27 0.401046
0.123 3.08159e+27 0.40314
0.124 3.09757e+27 0.405232
0.125 3.11354e+27 0.40732
0.126 3.12948e+27 0.409406
0.127 3.14541e+27 0.411489
0.128 3.16131e+27 0.41357
0.129 3.17719e+27 0.415648
0.13 3.19306e+27 0.417723
0.131 3.20891e+27 0.419797
0.132 3.22474e+27 0.421867
0.133 3.24055e+27 0.423936
0.134 3.25634e+27 0.426002
0.135 3.27212e+27 0.428066
0.136 3.28788e+27 0.430128
0.137 3.30362e+27 0.432187
0.138 3.31935e+27 0.434245
0.139 3.33506e+27 0.4363
0.14 3.35076e+27 0.438354
0.141 3.36644e+27 0.440405
0.142 3.38211e+27 0.442455
0.143 3.39776e+27 0.444502
0.144 3.4134e+27 0.446548
0.145 3.42902e+27 0.448592
0.146 3.44463e+27 0.450635
0.147 3.46023e+27 0.452675
0.148 3.47582e+27 0.454714
0.149 3.49139e+27 0.456752
0.15 3.50695e+27 0.458787
0.151 3.5225e+27 0.460822
0.152 3.53804e+27 0.462854
0.153 3.55356e+27 0.464885
0.154 3.56908e+27 0.466915
0.155 3.58458e+27 0.468943
0.156 3.60008e+27 0.47097
0.157 3.61556e+27 0.472996
0.158 3.63103e+27 0.47502
0.159 3.64649e+27 0.477043
0.16 3.66195e+27 0.479064
0.161 3.67739e+27 0.481085
0.162 3.69282e+27 0.483104
0.163 3.70825e+27 0.485122
0.164 3.72367e+27 0.487138
0.165 3.73907e+27 0.489154
0.166 3.75447e+27 0.491169
0.167 3.76986e+27 0.493182
0.168 3.78525e+27 0.495195
0.169 3.80062e+27 0.497206
0.17 3.81599e+27 0.499217
0.171 3.83135e+27 0.501226
0.172 3.8467e+27 0.503235
0.173 3.86205e+27 0.505242
0.174 3.87739e+27 0.507249
0.175 3.89272e+27 0.509255
0.176 3.90805e+27 0.51126
0.177 3.92337e+27 0.513264
0.178 3.93869e+27 0.515268
0.179 3.95399e+27 0.517271
0.18 3.9693e+27 0.519273
0.181 3.98459e+27 0.521274
0.182 3.99989e+27 0.523274
0.183 4.01517e+27 0.525274
0.184 4.03045e+27 0.527273
0.185 4.04573e+27 0.529272
0.186 4.061e+27 0.53127
0.187 4.07627e+27 0.533267
0.188 4.09153e+27 0.535264
0.189 4.10679e+27 0.53726
0.19 4.12205e+27 0.539256
0.191 4.1373e+27 0.541251
0.192 4.15254e+27 0.543245
0.193 4.16779e+27 0.545239
0.194 4.18303e+27 0.547233
0.195 4.19826e+27 0.549226
0.196 4.21349e+27 0.551219
0.197 4.22872e+27 0.553211
0.198 4.24395e+27 0.555203
0.199 4.25917e+27 0.557195
0.2 4.2744e+27 0.559186
0.201 4.28961e+27 0.561177
0.202 4.30483e+27 0.563168
0.203 4.32004e+27 0.565158
0.204 4.33525e+27 0.567148
0.205 4.35046e+27 0.569137
0.206 4.36567e+27 0.571127
0.207 4.38087e+27 0.573116
0.208 4.39608e+27 0.575105
0.209 4.41128e+27 0.577093
0.21 4.42648e+27 0.579082
0.211 4.44168e+27 0.58107
0.212 4.45687e+27 0.583058
0.213 4.47207e+27 0.585046
0.214 4.48726e+27 0.587034
0.215 4.50246e+27 0.589022
0.216 4.51765e+27 0.591009
0.217 4.53284e+27 0.592997
0.218 4.54803e+27 0.594984
0.219 4.56322e+27 0.596971
0.22 4.57841e+27 0.598958
0.221 4.5936e+27 0.600945
0.222 4.60879e+27 0.602932
0.223 4.62398e+27 0.604919
0.224 4.63917e+27 0.606906
0.225 4.65435e+27 0.608893
0.226 4.66954e+27 0.61088
0.227 4.68473e+27 0.612867
0.228 4.69992e+27 0.614854
0.229 4.71511e+27 0.616841
0.23 4.7303e+27 0.618829
0.231 4.74549e+27 0.620816
0.232 4.76068e+27 0.622803
0.233 4.77587e+27 0.62479
0.234 4.79106e+27 0.626778
0.235 4.80625e+27 0.628765
0.236 4.82145e+27 0.630753
0.237 4.83664e+27 0.632741
0.238 4.85184e+27 0.634729
0.239 4.86703e+27 0.636717
0.24 4.88223e+27 0.638705
0.241 4.89743e+27 0.640693
0.242 4.91263e+27 0.642682
0.243 4.92783e+27 0.64467
0.244 4.94304e+27 0.646659
0.245 4.95824e+27 0.648649
0.246 4.97345e+27 0.650638
0.247 4.98866e+27 0.652627
0.248 5.00387e+27 0.654617
0.249 5.01908e+27 0.656607
0.25 5.03429e+27 0.658598
0.251 5.04951e+27 0.660588
0.252 5.06473e+27 0.662579
0.253 5.07995e+27 0.66457
0.254 5.09517e+27 0.666561
0.255 5.11039e+27 0.668553
0.256 5.12562e+27 0.670545
0.257 5.14085e+27 0.672537
0.258 5.15608e+27 0.67453
0.259 5.17131e+27 0.676523
0.26 5.18655e+27 0.678516
0.261 5.20179e+27 0.68051
0.262 5.21703e+27 0.682504
0.263 5.23228e+27 0.684498
0.264 5.24752e+27 0.686493
0.265 5.26277e+27 0.688488
0.266 5.27803e+27 0.690484
0.267 5.29328e+27 0.692479
0.268 5.30854e+27 0.694476
0.269 5.3238e+27 0.696472
0.27 5.33907e+27 0.698469
0.271 5.35434e+27 0.700467
0.272 5.36961e+27 0.702465
0.273 5.38489e+27 0.704463
0.274 5.40017e+27 0.706462
0.275 5.41545e+27 0.708461
0.276 5.43073e+27 0.710461
0.277 5.44602e+27 0.712461
0.278 5.46131e+27 0.714462
0.279 5.47661e+27 0.716463
0.28 5.49191e+27 0.718464
0.281 5.50721e+27 0.720466
0.282 5.52252e+27 0.722469
0.283 5.53783e+27 0.724472
0.284 5.55315e+27 0.726476
0.285 5.56847e+27 0.72848
0.286 5.58379e+27 0.730484
0.287 5.59912e+27 0.73249
0.288 5.61445e+27 0.734495
0.289 5.62979e+27 0.736501
0.29 5.64512e+27 0.738508
0.291 5.66047e+27 0.740515
0.292 5.67582e+27 0.742523
0.293 5.69117e+27 0.744532
0.294 5.70653e+27 0.746541
0.295 5.72189e+27 0.74855
0.296 5.73725e+27 0.75056
0.297 5.75262e+27 0.752571
0.298 5.768e+27 0.754582
0.299 5.78337e+27 0.756594
0.3 5.79876e+27 0.758607
0.301 5.81415e+27 0.76062
0.302 5.82954e+27 0.762634
0.303 5.84494e+27 0.764648
0.304 5.86034e+27 0.766663
0.305 5.87575e+27 0.768679
0.306 5.89116e+27 0.770695
0.307 5.90657e+27 0.772712
0.308 5.922e+27 0.774729
0.309 5.93742e+27 0.776747
0.31 5.95285e+27 0.778766
0.311 5.96829e+27 0.780785
0.312 5.98373e+27 0.782806
0.313 5.99918e+27 0.784826
0.314 6.01463e+27 0.786848
0.315 6.03009e+27 0.78887
0.316 6.04555e+27 0.790893
0.317 6.06102e+27 0.792916
0.318 6.07649e+27 0.79494
0.319 6.09197e+27 0.796965
0.32 6.10745e+27 0.798991
0.321 6.12294e+27 0.801017
0.322 6.13843e+27 0.803044
0.323 6.15393e+27 0.805072
0.324 6.16944e+27 0.8071
0.325 6.18495e+27 0.809129
0.326 6.20047e+27 0.811159
0.327 6.21599e+27 0.81319
0.328 6.23151e+27 0.815221
0.329 6.24705e+27 0.817253
0.33 6.26259e+27 0.819286
0.331 6.27813e+27 0.821319
0.332 6.29368e+27 0.823354
0.333 6.30924e+27 0.825389
0.334 6.3248e+27 0.827424
0.335 6.34036e+27 0.829461
0.336 6.35594e+27 0.831498
0.337 6.37152e+27 0.833536
0.338 6.3871e+27 0.835575
0.339 6.40269e+27 0.837615
0.34 6.41829e+27 0.839655
0.341 6.43389e+27 0.841697
0.342 6.4495e+27 0.843739
0.343 6.46512e+27 0.845781
0.344 6.48074e+27 0.847825
0.345 6.49636e+27 0.849869
0.346 6.512e+27 0.851914
0.347 6.52764e+27 0.85396
0.348 6.54328e+27 0.856007
0.349 6.55893e+27 0.858055
0.35 6.57459e+27 0.860103
0.351 6.59026e+27 0.862152
0.352 6.60593e+27 0.864203
0.353 6.6216e+27 0.866253
0.354 6.63729e+27 0.868305
0.355 6.65298e+27 0.870358
0.356 6.66867e+27 0.872411
0.357 6.68438e+27 0.874465
0.358 6.70008e+27 0.87652
0.359 6.7158e+27 0.878576
0.36 6.73152e+27 0.880633
0.361 6.74725e+27 0.882691
0.362 6.76299e+27 0.884749
0.363 6.77873e+27 0.886809
0.364 6.79447e+27 0.888869
0.365 6.81023e+27 0.89093
0.366 6.82599e+27 0.892992
0.367 6.84176e+27 0.895055
0.368 6.85753e+27 0.897118
0.369 6.87332e+27 0.899183
0.37 6.8891e+27 0.901248
0.371 6.9049e+27 0.903315
0.372 6.9207e+27 0.905382
0.373 6.93651e+27 0.90745
0.374 6.95232e+27 0.909519
0.375 6.96815e+27 0.911589
0.376 6.98397e+27 0.91366
0.377 6.99981e+27 0.915731
0.378 7.01565e+27 0.917804
0.379 7.0315e+27 0.919877
0.38 7.04736e+27 0.921952
0.381 7.06322e+27 0.924027
0.382 7.07909e+27 0.926103
0.383 7.09497e+27 0.928181
0.384 7.11086e+27 0.930259
0.385 7.12675e+27 0.932338
0.386 7.14265e+27 0.934417
0.387 7.15855e+27 0.936498
0.388 7.17447e+27 0.93858
0.389 7.19039e+27 0.940663
0.39 7.20631e+27 0.942746
0.391 7.22225e+27 0.944831
0.392 7.23819e+27 0.946917
0.393 7.25414e+27 0.949003
0.394 7.27009e+27 0.95109
0.395 7.28606e+27 0.953179
0.396 7.30203e+27 0.955268
0.397 7.31801e+27 0.957358
0.398 7.33399e+27 0.95945
0.399 7.34998e+27 0.961542
0.4 7.36598e+27 0.963635
0.401 7.38199e+27 0.965729
0.402 7.39801e+27 0.967824
0.403 7.41403e+27 0.96992
0.404 7.43006e+27 0.972017
0.405 7.44609e+27 0.974115
0.406 7.46214e+27 0.976214
0.407 7.47819e+27 0.978314
0.408 7.49425e+27 0.980415
0.409 7.51031e+27 0.982517
0.41 7.52639e+27 0.984619
0.411 7.54247e+27 0.986723
0.412 7.55856e+27 0.988828
0.413 7.57466e+27 0.990934
0.414 7.59076e+27 0.993041
0.415 7.60687e+27 0.995149
0.416 7.62299e+27 0.997257
0.417 7.63912e+27 0.999367
0.418 7.65525e+27 1.00148
0.419 7.6714e+27 1.00359
0.42 7.68755e+27 1.0057
0.421 7.7037e+27 1.00782
0.422 7.71987e+27 1.00993
0.423 7.73604e+27 1.01205
0.424 7.75222e+27 1.01416
0.425 7.76841e+27 1.01628
0.426 7.78461e+27 1.0184
0.427 7.80081e+27 1.02052
0.428 7.81703e+27 1.02264
0.429 7.83325e+27 1.02476
0.43 7.84947e+27 1.02689
0.431 7.86571e+27 1.02901
0.432 7.88195e+27 1.03114
0.433 7.8982e+27 1.03326
0.434 7.91446e+27 1.03539
0.435 7.93073e+27 1.03752
0.436 7.947e+27 1.03965
0.437 7.96329e+27 1.04178
0.438 7.97958e+27 1.04391
0.439 7.99588e+27 1.04604
0.44 8.01218e+27 1.04817
0.441 8.0285e+27 1.05031
0.442 8.04482e+27 1.05244
0.443 8.06115e+27 1.05458
0.444 8.07749e+27 1.05672
0.445 8.09384e+27 1.05885
0.446 8.11019e+27 1.06099
0.447 8.12655e+27 1.06313
0.448 8.14292e+27 1.06528
0.449 8.1593e+27 1.06742
0.45 8.17569e+27 1.06956
0.451 8.19208e+27 1.07171
0.452 8.20849e+27 1.07385
0.453 8.2249e+27 1.076
0.454 8.24132e+27 1.07815
0.455 8.25775e+27 1.0803
0.456 8.27418e+27 1.08245
0.457 8.29063e+27 1.0846
0.458 8.30708e+27 1.08675
0.459 8.32354e+27 1.0889
0.46 8.34001e+27 1.09106
0.461 8.35648e+27 1.09321
0.462 8.37297e+27 1.09537
0.463 8.38946e+27 1.09753
0.464 8.40596e+27 1.09969
0.465 8.42247e+27 1.10185
0.466 8.43899e+27 1.10401
0.467 8.45552e+27 1.10617
0.468 8.47205e+27 1.10833
0.469 8.4886e+27 1.1105
0.47 8.50515e+27 1.11266
0.471 8.52171e+27 1.11483
0.472 8.53827e+27 1.117
0.473 8.55485e+27 1.11917
0.474 8.57144e+27 1.12133
0.475 8.58803e+27 1.12351
0.476 8.60463e+27 1.12568
0.477 8.62124e+27 1.12785
0.478 8.63786e+27 1.13002
0.479 8.65449e+27 1.1322
0.48 8.67112e+27 1.13438
0.481 8.68777e+27 1.13655
0.482 8.70442e+27 1.13873
0.483 8.72108e+27 1.14091
0.484 8.73775e+27 1.14309
0.485 8.75442e+27 1.14527
0.486 8.77111e+27 1.14746
0.487 8.78781e+27 1.14964
0.488 8.80451e+27 1.15183
0.489 8.82122e+27 1.15401
0.49 8.83794e+27 1.1562
0.491 8.85467e+27 1.15839
0.492 8.87141e+27 1.16058
0.493 8.88815e+27 1.16277
0.494 8.90491e+27 1.16496
0.495 8.92167e+27 1.16715
0.496 8.93844e+27 1.16935
0.497 8.95522e+27 1.17154
0.498 8.97201e+27 1.17374
0.499 8.98881e+27 1.17594
0.5 9.00561e+27 1.17814
0.501 9.02243e+27 1.18033
0.502 9.03925e+27 1.18254
0.503 9.05609e+27 1.18474
0.504 9.07293e+27 1.18694
0.505 9.08978e+27 1.18915
0.506 9.10663e+27 1.19135
0.507 9.1235e+27 1.19356
0.508 9.14038e+27 1.19576
0.509 9.15726e+27 1.19797
0.51 9.17415e+27 1.20018
0.511 9.19105e+27 1.20239
0.512 9.20797e+27 1.20461
0.513 9.22488e+27 1.20682
0.514 9.24181e+27 1.20904
0.515 9.25875e+27 1.21125
0.516 9.2757e+27 1.21347
0.517 9.29265e+27 1.21569
0.518 9.30961e+27 1.2179
0.519 9.32658e+27 1.22013
0.52 9.34357e+27 1.22235
0.521 9.36055e+27 1.22457
0.522 9.37755e+27 1.22679
0.523 9.39456e+27 1.22902
0.524 9.41158e+27 1.23124
0.525 9.4286e+27 1.23347
0.526 9.44564e+27 1.2357
0.527 9.46268e+27 1.23793
0.528 9.47973e+27 1.24016
0.529 9.49679e+27 1.24239
0.53 9.51386e+27 1.24462
0.531 9.53094e+27 1.24686
0.532 9.54802e+27 1.24909
0.533 9.56512e+27 1.25133
0.534 9.58223e+27 1.25357
0.535 9.59934e+27 1.25581
0.536 9.61646e+27 1.25805
0.537 9.63359e+27 1.26029
0.538 9.65073e+27 1.26253
0.539 9.66788e+27 1.26477
0.54 9.68504e+27 1.26702
0.541 9.70221e+27 1.26927
0.542 9.71939e+27 1.27151
0.543 9.73657e+27 1.27376
0.544 9.75377e+27 1.27601
0.545 9.77097e+27 1.27826
0.546 9.78818e+27 1.28051
0.547 9.80541e+27 1.28277
0.548 9.82264e+27 1.28502
0.549 9.83988e+27 1.28728
0.55 9.85712e+27 1.28953
0.551 9.87438e+27 1.29179
0.552 9.89165e+27 1.29405
0.553 9.90892e+27 1.29631
0.554 9.92621e+27 1.29857
0.555 9.9435e+27 1.30083
0.556 9.96081e+27 1.3031
0.557 9.97812e+27 1.30536
0.558 9.99544e+27 1.30763
0.559 1.00128e+28 1.30989
0.56 1.00301e+28 1.31216
0.561 1.00475e+28 1.31443
0.562 1.00648e+28 1.3167
0.563 1.00822e+28 1.31897
0.564 1.00996e+28 1.32125
0.565 1.01169e+28 1.32352
0.566 1.01343e+28 1.3258
0.567 1.01517e+28 1.32807
0.568 1.01692e+28 1.33035
0.569 1.01866e+28 1.33263
0.57 1.0204e+28 1.33491
0.571 1.02214e+28 1.33719
0.572 1.02389e+28 1.33948
0.573 1.02564e+28 1.34176
0.574 1.02738e+28 1.34404
0.575 1.02913e+28 1.34633
0.576 1.03088e+28 1.34862
0.577 1.03263e+28 1.35091
0.578 1.03438e+28 1.3532
0.579 1.03613e+28 1.35549
0.58 1.03788e+28 1.35778
0.581 1.03964e+28 1.36007
0.582 1.04139e+28 1.36237
0.583 1.04314e+28 1.36467
0.584 1.0449e+28 1.36696
0.585 1.04666e+28 1.36926
0.586 1.04842e+28 1.37156
0.587 1.05017e+28 1.37386
0.588 1.05193e+28 1.37616
0.589 1.05369e+28 1.37847
0.59 1.05546e+28 1.38077
0.591 1.05722e+28 1.38308
0.592 1.05898e+28 1.38538
0.593 1.06075e+28 1.38769
0.594 1.06251e+28 1.39
0.595 1.06428e+28 1.39231
0.596 1.06604e+28 1.39462
0.597 1.06781e+28 1.39694
0.598 1.06958e+28 1.39925
0.599 1.07135e+28 1.40157
0.6 1.07312e+28 1.40388
0.601 1.07489e+28 1.4062
0.602 1.07667e+28 1.40852
0.603 1.07844e+28 1.41084
0.604 1.08022e+28 1.41316
0.605 1.08199e+28 1.41549
0.606 1.08377e+28 1.41781
0.607 1.08555e+28 1.42013
0.608 1.08732e+28 1.42246
0.609 1.0891e+28 1.42479
0.61 1.09088e+28 1.42712
0.611 1.09266e+28 1.42945
0.612 1.09445e+28 1.43178
0.613 1.09623e+28 1.43411
0.614 1.09801e+28 1.43645
0.615 1.0998e+28 1.43878
0.616 1.10158e+28 1.44112
0.617 1.10337e+28 1.44346
0.618 1.10516e+28 1.44579
0.619 1.10695e+28 1.44813
0.62 1.10874e+28 1.45048
0.621 1.11053e+28 1.45282
0.622 1.11232e+28 1.45516
0.623 1.11411e+28 1.45751
0.624 1.11591e+28 1.45985
0.625 1.1177e+28 1.4622
0.626 1.1195e+28 1.46455
0.627 1.12129e+28 1.4669
0.628 1.12309e+28 1.46925
0.629 1.12489e+28 1.4716
0.63 1.12669e+28 1.47396
0.631 1.12849e+28 1.47631
0.632 1.13029e+28 1.47867
0.633 1.13209e+28 1.48102
0.634 1.13389e+28 1.48338
0.635 1.1357e+28 1.48574
0.636 1.1375e+28 1.4881
0.637 1.13931e+28 1.49047
0.638 1.14111e+28 1.49283
0.639 1.14292e+28 1.4952
0.64 1.14473e+28 1.49756
0.641 1.14654e+28 1.49993
0.642 1.14835e+28 1.5023
0.643 1.15016e+28 1.50467
0.644 1.15197e+28 1.50704
0.645 1.15379e+28 1.50941
0.646 1.1556e+28 1.51178
0.647 1.15742e+28 1.51416
0.648 1.15923e+28 1.51654
0.649 1.16105e+28 1.51891
0.65 1.16287e+28 1.52129
0.651 1.16469e+28 1.52367
0.652 1.16651e+28 1.52605
0.653 1.16833e+28 1.52843
0.654 1.17015e+28 1.53082
0.655 1.17197e+28 1.5332
0.656 1.1738e+28 1.53559
0.657 1.17562e+28 1.53798
0.658 1.17745e+28 1.54037
0.659 1.17928e+28 1.54276
0.66 1.1811e+28 1.54515
0.661 1.18293e+28 1.54754
0.662 1.18476e+28 1.54993
0.663 1.18659e+28 1.55233
0.664 1.18842e+28 1.55472
0.665 1.19026e+28 1.55712
0.666 1.19209e+28 1.55952
0.667 1.19393e+28 1.56192
0.668 1.19576e+28 1.56432
0.669 1.1976e+28 1.56672
0.67 1.19943e+28 1.56913
0.671 1.20127e+28 1.57153
0.672 1.20311e+28 1.57394
0.673 1.20495e+28 1.57635
0.674 1.20679e+28 1.57876
0.675 1.20864e+28 1.58117
0.676 1.21048e+28 1.58358
0.677 1.21232e+28 1.58599
0.678 1.21417e+28 1.5884
0.679 1.21602e+28 1.59082
0.68 1.21786e+28 1.59324
0.681 1.21971e+28 1.59565
0.682 1.22156e+28 1.59807
0.683 1.22341e+28 1.60049
0.684 1.22526e+28 1.60291
0.685 1.22711e+28 1.60534
0.686 1.22897e+28 1.60776
0.687 1.23082e+28 1.61019
0.688 1.23267e+28 1.61261
0.689 1.23453e+28 1.61504
0.69 1.23639e+28 1.61747
0.691 1.23824e+28 1.6199
0.692 1.2401e+28 1.62233
0.693 1.24196e+28 1.62477
0.694 1.24382e+28 1.6272
0.695 1.24569e+28 1.62964
0.696 1.24755e+28 1.63207
0.697 1.24941e+28 1.63451
0.698 1.25128e+28 1.63695
0.699 1.25314e+28 1.63939
0.7 1.25501e+28 1.64183
0.701 1.25688e+28 1.64428
0.702 1.25875e+28 1.64672
0.703 1.26061e+28 1.64917
0.704 1.26249e+28 1.65161
0.705 1.26436e+28 1.65406
0.706 1.26623e+28 1.65651
0.707 1.2681e+28 1.65896
0.708 1.26998e+28 1.66141
0.709 1.27185e+28 1.66387
0.71 1.27373e+28 1.66632
0.711 1.27561e+28 1.66878
0.712 1.27748e+28 1.67123
0.713 1.27936e+28 1.67369
0.714 1.28124e+28 1.67615
0.715 1.28313e+28 1.67861
0.716 1.28501e+28 1.68108
0.717 1.28689e+28 1.68354
0.718 1.28878e+28 1.68601
0.719 1.29066e+28 1.68847
0.72 1.29255e+28 1.69094
0.721 1.29443e+28 1.69341
0.722 1.29632e+28 1.69588
0.723 1.29821e+28 1.69835
0.724 1.3001e+28 1.70082
0.725 1.30199e+28 1.7033
0.726 1.30388e+28 1.70577
0.727 1.30578e+28 1.70825
0.728 1.30767e+28 1.71073
0.729 1.30957e+28 1.71321
0.73 1.31146e+28 1.71569
0.731 1.31336e+28 1.71817
0.732 1.31526e+28 1.72065
0.733 1.31716e+28 1.72313
0.734 1.31906e+28 1.72562
0.735 1.32096e+28 1.72811
0.736 1.32286e+28 1.7306
0.737 1.32476e+28 1.73308
0.738 1.32667e+28 1.73558
0.739 1.32857e+28 1.73807
0.74 1.33048e+28 1.74056
0.741 1.33238e+28 1.74306
0.742 1.33429e+28 1.74555
0.743 1.3362e+28 1.74805
0.744 1.33811e+28 1.75055
0.745 1.34002e+28 1.75305
0.746 1.34193e+28 1.75555
0.747 1.34385e+28 1.75805
0.748 1.34576e+28 1.76055
0.749 1.34768e+28 1.76306
0.75 1.34959e+28 1.76557
0.751 1.35151e+28 1.76807
0.752 1.35343e+28 1.77058
0.753 1.35534e+28 1.77309
0.754 1.35726e+28 1.7756
0.755 1.35918e+28 1.77812
0.756 1.36111e+28 1.78063
0.757 1.36303e+28 1.78315
0.758 1.36495e+28 1.78566
0.759 1.36688e+28 1.78818
